# χ_ent(t) = -ln(Σ_s |⟨s|ψ(t)⟩|^4)  Fock-basis IPR averaged over 20 random Fock initial states
# C(t) = (4/L) Σ_k [⟨n_k n_{k+1}⟩ - ⟨n_k⟩⟨n_{k+1}⟩]  connected NN density correlator; T=∞ plateau = -1/(L-1) = -0.06666666666666667
# L=16  N=8  t_hop=1.0  V=1.0  tp=0.3  Vp=0.3  rng_seed=42
# ln(D) = 9.462654300590172  (ergodic ceiling: χ_ent → ln(D) - ln(2) ≈ 8.769507120030227 for thermalizing system)
time,chi_ent_mean,chi_ent_std,C_mean,C_std
0.0000,0.00000000,0.00000000,0.00000000,0.00000000
0.0050,0.00045095,0.00008124,-0.00005125,0.00001038
0.0100,0.00180374,0.00032496,-0.00020494,0.00004152
0.0150,0.00405826,0.00073119,-0.00046093,0.00009336
0.0200,0.00721429,0.00129996,-0.00081900,0.00016584
0.0250,0.01127151,0.00203131,-0.00127881,0.00025888
0.0300,0.01622956,0.00292531,-0.00183994,0.00037234
0.0350,0.02208795,0.00398203,-0.00250188,0.00050608
0.0400,0.02884612,0.00520156,-0.00326403,0.00065992
0.0450,0.03650340,0.00658399,-0.00412568,0.00083367
0.0500,0.04505906,0.00812943,-0.00508605,0.00102709
0.0550,0.05451226,0.00983801,-0.00614427,0.00123994
0.0600,0.06486207,0.01170985,-0.00729937,0.00147193
0.0650,0.07610745,0.01374509,-0.00855030,0.00172277
0.0700,0.08824729,0.01594389,-0.00989591,0.00199213
0.0750,0.10128034,0.01830639,-0.01133499,0.00227965
0.0800,0.11520529,0.02083276,-0.01286622,0.00258497
0.0850,0.13002070,0.02352317,-0.01448821,0.00290768
0.0900,0.14572503,0.02637780,-0.01619950,0.00324736
0.0950,0.16231662,0.02939681,-0.01799853,0.00360357
0.1000,0.17979371,0.03258038,-0.01988367,0.00397585
0.1050,0.19815441,0.03592870,-0.02185322,0.00436371
0.1100,0.21739670,0.03944193,-0.02390540,0.00476665
0.1150,0.23751847,0.04312025,-0.02603835,0.00518413
0.1200,0.25851745,0.04696383,-0.02825017,0.00561563
0.1250,0.28039125,0.05097282,-0.03053885,0.00606057
0.1300,0.30313732,0.05514739,-0.03290235,0.00651837
0.1350,0.32675299,0.05948765,-0.03533855,0.00698845
0.1400,0.35123543,0.06399375,-0.03784526,0.00747019
0.1450,0.37658166,0.06866579,-0.04042025,0.00796295
0.1500,0.40278855,0.07350386,-0.04306122,0.00846611
0.1550,0.42985278,0.07850803,-0.04576583,0.00897901
0.1600,0.45777086,0.08367832,-0.04853167,0.00950097
0.1650,0.48653915,0.08901477,-0.05135630,0.01003133
0.1700,0.51615378,0.09451734,-0.05423721,0.01056939
0.1750,0.54661073,0.10018598,-0.05717187,0.01111445
0.1800,0.57790573,0.10602060,-0.06015770,0.01166581
0.1850,0.61003435,0.11202104,-0.06319208,0.01222275
0.1900,0.64299189,0.11818713,-0.06627236,0.01278454
0.1950,0.67677346,0.12451861,-0.06939584,0.01335047
0.2000,0.71137391,0.13101519,-0.07255981,0.01391979
0.2050,0.74678786,0.13767650,-0.07576153,0.01449177
0.2100,0.78300965,0.14450210,-0.07899823,0.01506566
0.2150,0.82003336,0.15149148,-0.08226712,0.01564073
0.2200,0.85785279,0.15864406,-0.08556539,0.01621622
0.2250,0.89646144,0.16595916,-0.08889021,0.01679141
0.2300,0.93585252,0.17343600,-0.09223877,0.01736553
0.2350,0.97601891,0.18107370,-0.09560820,0.01793786
0.2400,1.01695315,0.18887130,-0.09899565,0.01850765
0.2450,1.05864744,0.19682768,-0.10239828,0.01907416
0.2500,1.10109363,0.20494162,-0.10581323,0.01963668
0.2550,1.14428318,0.21321177,-0.10923764,0.02019447
0.2600,1.18820716,0.22163664,-0.11266867,0.02074683
0.2650,1.23285624,0.23021456,-0.11610347,0.02129303
0.2700,1.27822064,0.23894373,-0.11953921,0.02183238
0.2750,1.32429017,0.24782217,-0.12297309,0.02236420
0.2800,1.37105416,0.25684772,-0.12640229,0.02288780
0.2850,1.41850146,0.26601802,-0.12982404,0.02340252
0.2900,1.46662042,0.27533052,-0.13323558,0.02390769
0.2950,1.51539887,0.28478244,-0.13663418,0.02440269
0.3000,1.56482412,0.29437080,-0.14001713,0.02488688
0.3050,1.61488289,0.30409235,-0.14338176,0.02535966
0.3100,1.66556134,0.31394362,-0.14672541,0.02582044
0.3150,1.71684503,0.32392085,-0.15004549,0.02626862
0.3200,1.76871888,0.33402003,-0.15333942,0.02670367
0.3250,1.82116717,0.34423684,-0.15660467,0.02712503
0.3300,1.87417352,0.35456668,-0.15983876,0.02753220
0.3350,1.92772086,0.36500461,-0.16303923,0.02792467
0.3400,1.98179139,0.37554539,-0.16620369,0.02830197
0.3450,2.03636660,0.38618342,-0.16932980,0.02866365
0.3500,2.09142722,0.39691276,-0.17241526,0.02900927
0.3550,2.14695319,0.40772710,-0.17545782,0.02933844
0.3600,2.20292367,0.41861976,-0.17845530,0.02965076
0.3650,2.25931701,0.42958365,-0.18140556,0.02994590
0.3700,2.31611071,0.44061130,-0.18430654,0.03022351
0.3750,2.37328143,0.45169484,-0.18715622,0.03048331
0.3800,2.43080498,0.46282597,-0.18995265,0.03072502
0.3850,2.48865627,0.47399596,-0.19269396,0.03094839
0.3900,2.54680934,0.48519565,-0.19537832,0.03115322
0.3950,2.60523733,0.49641546,-0.19800398,0.03133933
0.4000,2.66391248,0.50764537,-0.20056926,0.03150656
0.4050,2.72280613,0.51887489,-0.20307254,0.03165479
0.4100,2.78188872,0.53009313,-0.20551228,0.03178394
0.4150,2.84112980,0.54128874,-0.20788701,0.03189397
0.4200,2.90049804,0.55244996,-0.21019533,0.03198484
0.4250,2.95996121,0.56356460,-0.21243592,0.03205659
0.4300,3.01948629,0.57462005,-0.21460753,0.03210926
0.4350,3.07903938,0.58560335,-0.21670899,0.03214294
0.4400,3.13858583,0.59650112,-0.21873919,0.03215777
0.4450,3.19809023,0.60729966,-0.22069712,0.03215391
0.4500,3.25751645,0.61798494,-0.22258183,0.03213158
0.4550,3.31682771,0.62854263,-0.22439246,0.03209100
0.4600,3.37598665,0.63895814,-0.22612821,0.03203249
0.4650,3.43495536,0.64921667,-0.22778838,0.03195636
0.4700,3.49369549,0.65930323,-0.22937233,0.03186300
0.4750,3.55216829,0.66920271,-0.23087952,0.03175281
0.4800,3.61033476,0.67889989,-0.23230945,0.03162627
0.4850,3.66815567,0.68837954,-0.23366175,0.03148389
0.4900,3.72559171,0.69762646,-0.23493608,0.03132621
0.4950,3.78260359,0.70662551,-0.23613221,0.03115386
0.5000,3.83915216,0.71536172,-0.23724996,0.03096749
0.5050,3.89519849,0.72382033,-0.23828925,0.03076780
0.5100,3.95070405,0.73198685,-0.23925007,0.03055556
0.5150,4.00563079,0.73984714,-0.24013247,0.03033158
0.5200,4.05994131,0.74738748,-0.24093660,0.03009672
0.5250,4.11359895,0.75459462,-0.24166266,0.02985192
0.5300,4.16656797,0.76145587,-0.24231095,0.02959815
0.5350,4.21881363,0.76795917,-0.24288181,0.02933645
0.5400,4.27030237,0.77409314,-0.24337567,0.02906792
0.5450,4.32100191,0.77984714,-0.24379303,0.02879370
0.5500,4.37088136,0.78521136,-0.24413445,0.02851503
0.5550,4.41991139,0.79017683,-0.24440057,0.02823315
0.5600,4.46806429,0.79473552,-0.24459208,0.02794941
0.5650,4.51531410,0.79888037,-0.24470975,0.02766518
0.5700,4.56163671,0.80260534,-0.24475441,0.02738190
0.5750,4.60700992,0.80590541,-0.24472693,0.02710107
0.5800,4.65141355,0.80877669,-0.24462829,0.02682421
0.5850,4.69482948,0.81121637,-0.24445947,0.02655290
0.5900,4.73724174,0.81322278,-0.24422155,0.02628875
0.5950,4.77863648,0.81479539,-0.24391564,0.02603339
0.6000,4.81900208,0.81593485,-0.24354292,0.02578849
0.6050,4.85832912,0.81664292,-0.24310462,0.02555570
0.6100,4.89661040,0.81692256,-0.24260201,0.02533668
0.6150,4.93384091,0.81677781,-0.24203640,0.02513306
0.6200,4.97001784,0.81621389,-0.24140919,0.02494645
0.6250,5.00514055,0.81523705,-0.24072176,0.02477840
0.6300,5.03921047,0.81385466,-0.23997559,0.02463039
0.6350,5.07223112,0.81207510,-0.23917217,0.02450380
0.6400,5.10420802,0.80990772,-0.23831303,0.02439992
0.6450,5.13514858,0.80736285,-0.23739975,0.02431991
0.6500,5.16506209,0.80445168,-0.23643392,0.02426480
0.6550,5.19395958,0.80118629,-0.23541718,0.02423544
0.6600,5.22185374,0.79757952,-0.23435120,0.02423251
0.6650,5.24875884,0.79364493,-0.23323768,0.02425653
0.6700,5.27469060,0.78939678,-0.23207832,0.02430782
0.6750,5.29966612,0.78484993,-0.23087488,0.02438650
0.6800,5.32370373,0.78001979,-0.22962912,0.02449249
0.6850,5.34682293,0.77492222,-0.22834281,0.02462553
0.6900,5.36904425,0.76957354,-0.22701776,0.02478519
0.6950,5.39038915,0.76399041,-0.22565579,0.02497082
0.7000,5.41087991,0.75818975,-0.22425871,0.02518166
0.7050,5.43053955,0.75218873,-0.22282836,0.02541677
0.7100,5.44939169,0.74600469,-0.22136660,0.02567507
0.7150,5.46746049,0.73965503,-0.21987526,0.02595540
0.7200,5.48477053,0.73315722,-0.21835621,0.02625646
0.7250,5.50134673,0.72652871,-0.21681130,0.02657691
0.7300,5.51721426,0.71978684,-0.21524239,0.02691532
0.7350,5.53239845,0.71294886,-0.21365133,0.02727023
0.7400,5.54692475,0.70603181,-0.21203997,0.02764012
0.7450,5.56081862,0.69905250,-0.21041016,0.02802349
0.7500,5.57410546,0.69202748,-0.20876372,0.02841880
0.7550,5.58681059,0.68497293,-0.20710249,0.02882454
0.7600,5.59895916,0.67790471,-0.20542828,0.02923919
0.7650,5.61057610,0.67083824,-0.20374289,0.02966126
0.7700,5.62168610,0.66378851,-0.20204809,0.03008931
0.7750,5.63231353,0.65677004,-0.20034566,0.03052190
0.7800,5.64248243,0.64979681,-0.19863734,0.03095763
0.7850,5.65221648,0.64288231,-0.19692486,0.03139517
0.7900,5.66153896,0.63603942,-0.19520991,0.03183321
0.7950,5.67047270,0.62928046,-0.19349418,0.03227048
0.8000,5.67904013,0.62261714,-0.19177932,0.03270578
0.8050,5.68726319,0.61606054,-0.19006695,0.03313793
0.8100,5.69516335,0.60962111,-0.18835866,0.03356581
0.8150,5.70276160,0.60330865,-0.18665603,0.03398837
0.8200,5.71007844,0.59713227,-0.18496058,0.03440456
0.8250,5.71713384,0.59110046,-0.18327381,0.03481341
0.8300,5.72394731,0.58522098,-0.18159719,0.03521400
0.8350,5.73053781,0.57950095,-0.17993214,0.03560543
0.8400,5.73692382,0.57394679,-0.17828007,0.03598686
0.8450,5.74312329,0.56856425,-0.17664233,0.03635750
0.8500,5.74915369,0.56335841,-0.17502022,0.03671659
0.8550,5.75503197,0.55833366,-0.17341504,0.03706343
0.8600,5.76077459,0.55349375,-0.17182800,0.03739733
0.8650,5.76639751,0.54884175,-0.17026032,0.03771768
0.8700,5.77191621,0.54438011,-0.16871313,0.03802388
0.8750,5.77734570,0.54011063,-0.16718754,0.03831537
0.8800,5.78270049,0.53603451,-0.16568462,0.03859165
0.8850,5.78799464,0.53215233,-0.16420539,0.03885224
0.8900,5.79324173,0.52846410,-0.16275082,0.03909669
0.8950,5.79845492,0.52496927,-0.16132184,0.03932461
0.9000,5.80364690,0.52166672,-0.15991933,0.03953562
0.9050,5.80882990,0.51855482,-0.15854413,0.03972938
0.9100,5.81401575,0.51563144,-0.15719703,0.03990560
0.9150,5.81921583,0.51289396,-0.15587876,0.04006400
0.9200,5.82444112,0.51033933,-0.15459002,0.04020435
0.9250,5.82970216,0.50796404,-0.15333146,0.04032644
0.9300,5.83500909,0.50576418,-0.15210368,0.04043009
0.9350,5.84037165,0.50373550,-0.15090723,0.04051516
0.9400,5.84579917,0.50187334,-0.14974261,0.04058153
0.9450,5.85130062,0.50017276,-0.14861028,0.04062912
0.9500,5.85688453,0.49862851,-0.14751066,0.04065788
0.9550,5.86255909,0.49723506,-0.14644409,0.04066777
0.9600,5.86833209,0.49598665,-0.14541091,0.04065878
0.9650,5.87421095,0.49487731,-0.14441137,0.04063096
0.9700,5.88020273,0.49390088,-0.14344571,0.04058435
0.9750,5.88631411,0.49305101,-0.14251409,0.04051902
0.9800,5.89255142,0.49232126,-0.14161665,0.04043509
0.9850,5.89892062,0.49170506,-0.14075347,0.04033269
0.9900,5.90542732,0.49119575,-0.13992461,0.04021196
0.9950,5.91207680,0.49078662,-0.13913005,0.04007309
1.0000,5.91887397,0.49047093,-0.13836976,0.03991629
1.0050,5.92582340,0.49024193,-0.13764365,0.03974177
1.0100,5.93292934,0.49009286,-0.13695159,0.03954978
1.0150,5.94019568,0.49001702,-0.13629341,0.03934061
1.0200,5.94762599,0.49000776,-0.13566890,0.03911454
1.0250,5.95522353,0.49005849,-0.13507782,0.03887189
1.0300,5.96299121,0.49016273,-0.13451988,0.03861299
1.0350,5.97093164,0.49031411,-0.13399475,0.03833821
1.0400,5.97904709,0.49050639,-0.13350208,0.03804791
1.0450,5.98733955,0.49073347,-0.13304147,0.03774251
1.0500,5.99581068,0.49098942,-0.13261249,0.03742241
1.0550,6.00446185,0.49126850,-0.13221469,0.03708806
1.0600,6.01329412,0.49156513,-0.13184756,0.03673991
1.0650,6.02230826,0.49187397,-0.13151057,0.03637843
1.0700,6.03150476,0.49218989,-0.13120318,0.03600412
1.0750,6.04088380,0.49250796,-0.13092480,0.03561749
1.0800,6.05044530,0.49282352,-0.13067481,0.03521906
1.0850,6.06018890,0.49313215,-0.13045257,0.03480938
1.0900,6.07011397,0.49342969,-0.13025743,0.03438902
1.0950,6.08021960,0.49371223,-0.13008869,0.03395855
1.1000,6.09050464,0.49397615,-0.12994564,0.03351857
1.1050,6.10096766,0.49421808,-0.12982755,0.03306968
1.1100,6.11160699,0.49443497,-0.12973366,0.03261252
1.1150,6.12242071,0.49462402,-0.12966321,0.03214774
1.1200,6.13340668,0.49478272,-0.12961539,0.03167599
1.1250,6.14456248,0.49490886,-0.12958941,0.03119794
1.1300,6.15588551,0.49500051,-0.12958445,0.03071429
1.1350,6.16737289,0.49505604,-0.12959965,0.03022575
1.1400,6.17902157,0.49507409,-0.12963419,0.02973303
1.1450,6.19082825,0.49505358,-0.12968719,0.02923688
1.1500,6.20278945,0.49499373,-0.12975779,0.02873804
1.1550,6.21490145,0.49489401,-0.12984510,0.02823728
1.1600,6.22716035,0.49475417,-0.12994824,0.02773540
1.1650,6.23956208,0.49457422,-0.13006631,0.02723317
1.1700,6.25210233,0.49435441,-0.13019841,0.02673143
1.1750,6.26477666,0.49409525,-0.13034365,0.02623098
1.1800,6.27758041,0.49379747,-0.13050112,0.02573269
1.1850,6.29050878,0.49346202,-0.13066990,0.02523739
1.1900,6.30355679,0.49309006,-0.13084909,0.02474595
1.1950,6.31671931,0.49268294,-0.13103778,0.02425927
1.2000,6.32999103,0.49224220,-0.13123507,0.02377822
1.2050,6.34336653,0.49176954,-0.13144006,0.02330370
1.2100,6.35684022,0.49126679,-0.13165184,0.02283664
1.2150,6.37040637,0.49073595,-0.13186953,0.02237793
1.2200,6.38405914,0.49017910,-0.13209224,0.02192851
1.2250,6.39779256,0.48959844,-0.13231909,0.02148928
1.2300,6.41160053,0.48899623,-0.13254921,0.02106117
1.2350,6.42547685,0.48837481,-0.13278174,0.02064509
1.2400,6.43941521,0.48773655,-0.13301583,0.02024192
1.2450,6.45340919,0.48708384,-0.13325064,0.01985255
1.2500,6.46745231,0.48641909,-0.13348534,0.01947783
1.2550,6.48153796,0.48574469,-0.13371912,0.01911859
1.2600,6.49565950,0.48506300,-0.13395119,0.01877561
1.2650,6.50981018,0.48437633,-0.13418075,0.01844962
1.2700,6.52398321,0.48368693,-0.13440704,0.01814131
1.2750,6.53817173,0.48299697,-0.13462930,0.01785129
1.2800,6.55236884,0.48230852,-0.13484681,0.01758010
1.2850,6.56656760,0.48162354,-0.13505884,0.01732820
1.2900,6.58076104,0.48094388,-0.13526469,0.01709595
1.2950,6.59494214,0.48027125,-0.13546369,0.01688361
1.3000,6.60910391,0.47960721,-0.13565518,0.01669134
1.3050,6.62323931,0.47895319,-0.13583851,0.01651918
1.3100,6.63734132,0.47831045,-0.13601308,0.01636707
1.3150,6.65140294,0.47768007,-0.13617828,0.01623480
1.3200,6.66541717,0.47706298,-0.13633354,0.01612208
1.3250,6.67937704,0.47645993,-0.13647830,0.01602849
1.3300,6.69327562,0.47587151,-0.13661204,0.01595349
1.3350,6.70710603,0.47529812,-0.13673426,0.01589644
1.3400,6.72086144,0.47473999,-0.13684446,0.01585664
1.3450,6.73453507,0.47419720,-0.13694220,0.01583325
1.3500,6.74812025,0.47366964,-0.13702702,0.01582540
1.3550,6.76161034,0.47315705,-0.13709854,0.01583215
1.3600,6.77499884,0.47265903,-0.13715635,0.01585250
1.3650,6.78827930,0.47217500,-0.13720010,0.01588542
1.3700,6.80144543,0.47170427,-0.13722946,0.01592986
1.3750,6.81449102,0.47124601,-0.13724410,0.01598476
1.3800,6.82740999,0.47079926,-0.13724375,0.01604905
1.3850,6.84019641,0.47036296,-0.13722814,0.01612166
1.3900,6.85284449,0.46993593,-0.13719703,0.01620157
1.3950,6.86534859,0.46951692,-0.13715022,0.01628774
1.4000,6.87770321,0.46910458,-0.13708752,0.01637919
1.4050,6.88990306,0.46869751,-0.13700876,0.01647497
1.4100,6.90194300,0.46829423,-0.13691382,0.01657415
1.4150,6.91381809,0.46789321,-0.13680256,0.01667586
1.4200,6.92552356,0.46749291,-0.13667492,0.01677928
1.4250,6.93705487,0.46709175,-0.13653082,0.01688362
1.4300,6.94840768,0.46668813,-0.13637022,0.01698814
1.4350,6.95957786,0.46628046,-0.13619311,0.01709214
1.4400,6.97056152,0.46586715,-0.13599949,0.01719499
1.4450,6.98135500,0.46544664,-0.13578940,0.01729609
1.4500,6.99195487,0.46501739,-0.13556288,0.01739487
1.4550,7.00235795,0.46457792,-0.13532001,0.01749083
1.4600,7.01256131,0.46412679,-0.13506089,0.01758350
1.4650,7.02256228,0.46366262,-0.13478564,0.01767245
1.4700,7.03235846,0.46318411,-0.13449440,0.01775729
1.4750,7.04194771,0.46269003,-0.13418732,0.01783767
1.4800,7.05132816,0.46217926,-0.13386459,0.01791327
1.4850,7.06049822,0.46165076,-0.13352640,0.01798382
1.4900,7.06945657,0.46110357,-0.13317298,0.01804906
1.4950,7.07820218,0.46053687,-0.13280457,0.01810878
1.5000,7.08673430,0.45994994,-0.13242141,0.01816278
1.5050,7.09505244,0.45934216,-0.13202379,0.01821091
1.5100,7.10315641,0.45871304,-0.13161200,0.01825304
1.5150,7.11104631,0.45806219,-0.13118634,0.01828905
1.5200,7.11872249,0.45738933,-0.13074713,0.01831886
1.5250,7.12618558,0.45669432,-0.13029472,0.01834240
1.5300,7.13343649,0.45597708,-0.12982945,0.01835963
1.5350,7.14047639,0.45523767,-0.12935170,0.01837053
1.5400,7.14730671,0.45447624,-0.12886184,0.01837510
1.5450,7.15392913,0.45369302,-0.12836027,0.01837334
1.5500,7.16034557,0.45288833,-0.12784739,0.01836530
1.5550,7.16655821,0.45206256,-0.12732362,0.01835100
1.5600,7.17256943,0.45121617,-0.12678938,0.01833051
1.5650,7.17838187,0.45034968,-0.12624511,0.01830391
1.5700,7.18399834,0.44946366,-0.12569127,0.01827128
1.5750,7.18942189,0.44855870,-0.12512829,0.01823271
1.5800,7.19465574,0.44763545,-0.12455666,0.01818831
1.5850,7.19970331,0.44669456,-0.12397683,0.01813821
1.5900,7.20456818,0.44573669,-0.12338929,0.01808253
1.5950,7.20925411,0.44476252,-0.12279451,0.01802140
1.6000,7.21376499,0.44377271,-0.12219299,0.01795497
1.6050,7.21810487,0.44276791,-0.12158523,0.01788340
1.6100,7.22227794,0.44174876,-0.12097171,0.01780684
1.6150,7.22628849,0.44071588,-0.12035294,0.01772546
1.6200,7.23014093,0.43966984,-0.11972943,0.01763943
1.6250,7.23383980,0.43861122,-0.11910167,0.01754894
1.6300,7.23738968,0.43754051,-0.11847018,0.01745415
1.6350,7.24079529,0.43645822,-0.11783546,0.01735527
1.6400,7.24406139,0.43536479,-0.11719802,0.01725248
1.6450,7.24719280,0.43426064,-0.11655837,0.01714598
1.6500,7.25019442,0.43314614,-0.11591701,0.01703598
1.6550,7.25307118,0.43202164,-0.11527445,0.01692267
1.6600,7.25582805,0.43088746,-0.11463120,0.01680626
1.6650,7.25847004,0.42974387,-0.11398774,0.01668697
1.6700,7.26100216,0.42859114,-0.11334458,0.01656501
1.6750,7.26342946,0.42742952,-0.11270220,0.01644059
1.6800,7.26575698,0.42625921,-0.11206110,0.01631394
1.6850,7.26798974,0.42508042,-0.11142176,0.01618527
1.6900,7.27013279,0.42389336,-0.11078465,0.01605482
1.6950,7.27219114,0.42269822,-0.11015024,0.01592281
1.7000,7.27416975,0.42149517,-0.10951900,0.01578947
1.7050,7.27607359,0.42028440,-0.10889139,0.01565504
1.7100,7.27790756,0.41906610,-0.10826784,0.01551975
1.7150,7.27967653,0.41784047,-0.10764881,0.01538383
1.7200,7.28138531,0.41660771,-0.10703473,0.01524755
1.7250,7.28303864,0.41536801,-0.10642602,0.01511113
1.7300,7.28464119,0.41412160,-0.10582309,0.01497483
1.7350,7.28619759,0.41286869,-0.10522635,0.01483890
1.7400,7.28771234,0.41160954,-0.10463619,0.01470359
1.7450,7.28918991,0.41034437,-0.10405300,0.01456917
1.7500,7.29063462,0.40907343,-0.10347715,0.01443590
1.7550,7.29205075,0.40779700,-0.10290900,0.01430405
1.7600,7.29344243,0.40651531,-0.10234891,0.01417389
1.7650,7.29481373,0.40522865,-0.10179721,0.01404568
1.7700,7.29616858,0.40393728,-0.10125423,0.01391973
1.7750,7.29751081,0.40264147,-0.10072029,0.01379630
1.7800,7.29884413,0.40134148,-0.10019569,0.01367569
1.7850,7.30017214,0.40003757,-0.09968072,0.01355819
1.7900,7.30149831,0.39873000,-0.09917566,0.01344409
1.7950,7.30282599,0.39741903,-0.09868078,0.01333369
1.8000,7.30415842,0.39610488,-0.09819631,0.01322731
1.8050,7.30549871,0.39478779,-0.09772251,0.01312523
1.8100,7.30684983,0.39346798,-0.09725960,0.01302777
1.8150,7.30821465,0.39214566,-0.09680779,0.01293524
1.8200,7.30959591,0.39082101,-0.09636727,0.01284794
1.8250,7.31099621,0.38949423,-0.09593824,0.01276618
1.8300,7.31241806,0.38816548,-0.09552086,0.01269026
1.8350,7.31386384,0.38683491,-0.09511529,0.01262049
1.8400,7.31533581,0.38550266,-0.09472168,0.01255716
1.8450,7.31683611,0.38416887,-0.09434014,0.01250057
1.8500,7.31836679,0.38283364,-0.09397080,0.01245099
1.8550,7.31992977,0.38149708,-0.09361377,0.01240870
1.8600,7.32152690,0.38015929,-0.09326912,0.01237396
1.8650,7.32315989,0.37882034,-0.09293693,0.01234701
1.8700,7.32483037,0.37748031,-0.09261727,0.01232810
1.8750,7.32653990,0.37613925,-0.09231018,0.01231743
