# χ_ent(t) = -ln(Σ_s |⟨s|ψ(t)⟩|^4)  Fock-basis IPR averaged over 20/20 random Fock initial states
# C(t) = (4/L) Σ_k [⟨n_k n_{k+1}⟩ - ⟨n_k⟩⟨n_{k+1}⟩]  connected NN density correlator; T=∞ plateau = -1/(L-1) = -0.06666666666666667
# L=16  N=8  t_hop=1.0  V=1.0  tp=0.0  Vp=0.0  rng_seed=42
# ln(D) = 9.462654300590172  (ergodic ceiling: χ_ent → ln(D) - ln(2) ≈ 8.769507120030227 for thermalizing system)
time,chi_ent_mean,chi_ent_std,C_mean,C_std
0.0000,-0.00000000,0.00000000,-0.00000000,0.00000000
0.0050,0.00041000,0.00008307,-0.00005125,0.00001038
0.0100,0.00163995,0.00033227,-0.00020494,0.00004152
0.0150,0.00368973,0.00074761,-0.00046095,0.00009336
0.0200,0.00655915,0.00132909,-0.00081904,0.00016585
0.0250,0.01024792,0.00207674,-0.00127890,0.00025888
0.0300,0.01475568,0.00299056,-0.00184013,0.00037235
0.0350,0.02008200,0.00407056,-0.00250223,0.00050610
0.0400,0.02622634,0.00531677,-0.00326462,0.00065996
0.0450,0.03318809,0.00672921,-0.00412663,0.00083374
0.0500,0.04096657,0.00830789,-0.00508750,0.00102720
0.0550,0.04956100,0.01005284,-0.00614639,0.00124010
0.0600,0.05897051,0.01196407,-0.00730237,0.00147216
0.0650,0.06919414,0.01404160,-0.00855442,0.00172309
0.0700,0.08023086,0.01628546,-0.00990144,0.00199255
0.0750,0.09207953,0.01869565,-0.01134226,0.00228021
0.0800,0.10473892,0.02127219,-0.01287561,0.00258569
0.0850,0.11820770,0.02401507,-0.01450016,0.00290859
0.0900,0.13248444,0.02692430,-0.01621448,0.00324850
0.0950,0.14756763,0.02999986,-0.01801708,0.00360498
0.1000,0.16345563,0.03324173,-0.01990638,0.00397758
0.1050,0.18014671,0.03664988,-0.02188075,0.00436580
0.1100,0.19763901,0.04022427,-0.02393846,0.00476915
0.1150,0.21593059,0.04396484,-0.02607774,0.00518711
0.1200,0.23501935,0.04787150,-0.02829671,0.00561914
0.1250,0.25490312,0.05194418,-0.03059347,0.00606469
0.1300,0.27557955,0.05618275,-0.03296602,0.00652317
0.1350,0.29704621,0.06058707,-0.03541233,0.00699400
0.1400,0.31930050,0.06515698,-0.03793028,0.00747657
0.1450,0.34233972,0.06989228,-0.04051771,0.00797026
0.1500,0.36616098,0.07479276,-0.04317239,0.00847443
0.1550,0.39076129,0.07985816,-0.04589206,0.00898843
0.1600,0.41613746,0.08508818,-0.04867439,0.00951161
0.1650,0.44228618,0.09048249,-0.05151700,0.01004328
0.1700,0.46920396,0.09604071,-0.05441749,0.01058277
0.1750,0.49688713,0.10176241,-0.05737337,0.01112938
0.1800,0.52533184,0.10764711,-0.06038217,0.01168240
0.1850,0.55453408,0.11369429,-0.06344132,0.01224113
0.1900,0.58448961,0.11990335,-0.06654826,0.01280485
0.1950,0.61519403,0.12627363,-0.06970037,0.01337283
0.2000,0.64664269,0.13280440,-0.07289502,0.01394435
0.2050,0.67883075,0.13949488,-0.07612953,0.01451866
0.2100,0.71175314,0.14634417,-0.07940122,0.01509504
0.2150,0.74540454,0.15335133,-0.08270736,0.01567274
0.2200,0.77977941,0.16051528,-0.08604523,0.01625103
0.2250,0.81487193,0.16783489,-0.08941208,0.01682917
0.2300,0.85067603,0.17530890,-0.09280513,0.01740641
0.2350,0.88718536,0.18293596,-0.09622162,0.01798201
0.2400,0.92439328,0.19071459,-0.09965875,0.01855525
0.2450,0.96229286,0.19864319,-0.10311375,0.01912538
0.2500,1.00087684,0.20672004,-0.10658381,0.01969169
0.2550,1.04013765,0.21494327,-0.11006615,0.02025345
0.2600,1.08006739,0.22331087,-0.11355797,0.02080995
0.2650,1.12065780,0.23182069,-0.11705650,0.02136048
0.2700,1.16190025,0.24047041,-0.12055896,0.02190435
0.2750,1.20378574,0.24925752,-0.12406258,0.02244085
0.2800,1.24630489,0.25817936,-0.12756461,0.02296933
0.2850,1.28944788,0.26723308,-0.13106233,0.02348911
0.2900,1.33320449,0.27641562,-0.13455300,0.02399953
0.2950,1.37756407,0.28572373,-0.13803396,0.02449997
0.3000,1.42251549,0.29515392,-0.14150251,0.02498978
0.3050,1.46804716,0.30470251,-0.14495603,0.02546837
0.3100,1.51414702,0.31436555,-0.14839191,0.02593513
0.3150,1.56080248,0.32413888,-0.15180755,0.02638950
0.3200,1.60800044,0.33401806,-0.15520041,0.02683091
0.3250,1.65572728,0.34399840,-0.15856799,0.02725882
0.3300,1.70396881,0.35407493,-0.16190782,0.02767272
0.3350,1.75271027,0.36424242,-0.16521746,0.02807210
0.3400,1.80193633,0.37449531,-0.16849453,0.02845649
0.3450,1.85163104,0.38482778,-0.17173669,0.02882543
0.3500,1.90177786,0.39523369,-0.17494164,0.02917848
0.3550,1.95235960,0.40570657,-0.17810715,0.02951525
0.3600,2.00335845,0.41623965,-0.18123102,0.02983535
0.3650,2.05475593,0.42682582,-0.18431112,0.03013842
0.3700,2.10653290,0.43745764,-0.18734536,0.03042413
0.3750,2.15866956,0.44812735,-0.19033171,0.03069218
0.3800,2.21114542,0.45882684,-0.19326822,0.03094229
0.3850,2.26393929,0.46954764,-0.19615297,0.03117421
0.3900,2.31702931,0.48028098,-0.19898412,0.03138773
0.3950,2.37039292,0.49101772,-0.20175989,0.03158267
0.4000,2.42400689,0.50174839,-0.20447857,0.03175886
0.4050,2.47784727,0.51246322,-0.20713851,0.03191618
0.4100,2.53188947,0.52315209,-0.20973811,0.03205453
0.4150,2.58610821,0.53380457,-0.21227588,0.03217388
0.4200,2.64047758,0.54440994,-0.21475037,0.03227418
0.4250,2.69497101,0.55495720,-0.21716019,0.03235545
0.4300,2.74956135,0.56543508,-0.21950406,0.03241774
0.4350,2.80422086,0.57583206,-0.22178074,0.03246112
0.4400,2.85892125,0.58613640,-0.22398907,0.03248573
0.4450,2.91363371,0.59633616,-0.22612798,0.03249172
0.4500,2.96832897,0.60641924,-0.22819645,0.03247929
0.4550,3.02297733,0.61637338,-0.23019355,0.03244868
0.4600,3.07754874,0.62618624,-0.23211842,0.03240016
0.4650,3.13201279,0.63584541,-0.23397027,0.03233406
0.4700,3.18633887,0.64533842,-0.23574840,0.03225075
0.4750,3.24049613,0.65465284,-0.23745218,0.03215061
0.4800,3.29445365,0.66377630,-0.23908105,0.03203413
0.4850,3.34818044,0.67269651,-0.24063452,0.03190177
0.4900,3.40164555,0.68140133,-0.24211220,0.03175411
0.4950,3.45481816,0.68987882,-0.24351375,0.03159171
0.5000,3.50766766,0.69811728,-0.24483891,0.03141524
0.5050,3.56016373,0.70610529,-0.24608752,0.03122538
0.5100,3.61227642,0.71383178,-0.24725945,0.03102287
0.5150,3.66397628,0.72128608,-0.24835468,0.03080851
0.5200,3.71523443,0.72845792,-0.24937325,0.03058316
0.5250,3.76602263,0.73533755,-0.25031527,0.03034770
0.5300,3.81631341,0.74191573,-0.25118092,0.03010311
0.5350,3.86608016,0.74818380,-0.25197046,0.02985040
0.5400,3.91529717,0.75413370,-0.25268422,0.02959065
0.5450,3.96393978,0.75975804,-0.25332259,0.02932497
0.5500,4.01198441,0.76505010,-0.25388603,0.02905456
0.5550,4.05940866,0.77000391,-0.25437507,0.02878067
0.5600,4.10619139,0.77461422,-0.25479030,0.02850459
0.5650,4.15231275,0.77887657,-0.25513238,0.02822767
0.5700,4.19775429,0.78278732,-0.25540202,0.02795132
0.5750,4.24249898,0.78634361,-0.25560002,0.02767701
0.5800,4.28653126,0.78954344,-0.25572722,0.02740622
0.5850,4.32983709,0.79238565,-0.25578450,0.02714052
0.5900,4.37240395,0.79486992,-0.25577284,0.02688147
0.5950,4.41422092,0.79699679,-0.25569324,0.02663068
0.6000,4.45527862,0.79876766,-0.25554676,0.02638978
0.6050,4.49556930,0.80018474,-0.25533453,0.02616042
0.6100,4.53508676,0.80125111,-0.25505772,0.02594421
0.6150,4.57382640,0.80197066,-0.25471754,0.02574279
0.6200,4.61178515,0.80234806,-0.25431525,0.02555773
0.6250,4.64896150,0.80238880,-0.25385216,0.02539060
0.6300,4.68535543,0.80209908,-0.25332962,0.02524286
0.6350,4.72096840,0.80148587,-0.25274902,0.02511593
0.6400,4.75580327,0.80055682,-0.25211179,0.02501112
0.6450,4.78986430,0.79932024,-0.25141939,0.02492961
0.6500,4.82315705,0.79778507,-0.25067333,0.02487247
0.6550,4.85568834,0.79596086,-0.24987515,0.02484061
0.6600,4.88746620,0.79385767,-0.24902639,0.02483480
0.6650,4.91849980,0.79148612,-0.24812867,0.02485562
0.6700,4.94879935,0.78885726,-0.24718358,0.02490347
0.6750,4.97837609,0.78598259,-0.24619279,0.02497858
0.6800,5.00724216,0.78287397,-0.24515795,0.02508098
0.6850,5.03541057,0.77954361,-0.24408075,0.02521053
0.6900,5.06289510,0.77600403,-0.24296289,0.02536689
0.6950,5.08971026,0.77226797,-0.24180608,0.02554956
0.7000,5.11587118,0.76834840,-0.24061207,0.02575787
0.7050,5.14139356,0.76425845,-0.23938260,0.02599102
0.7100,5.16629362,0.76001138,-0.23811941,0.02624805
0.7150,5.19058801,0.75562054,-0.23682427,0.02652788
0.7200,5.21429372,0.75109930,-0.23549894,0.02682937
0.7250,5.23742808,0.74646108,-0.23414519,0.02715123
0.7300,5.26000866,0.74171924,-0.23276479,0.02749216
0.7350,5.28205322,0.73688708,-0.23135951,0.02785076
0.7400,5.30357964,0.73197782,-0.22993111,0.02822563
0.7450,5.32460590,0.72700452,-0.22848135,0.02861531
0.7500,5.34515002,0.72198011,-0.22701198,0.02901834
0.7550,5.36522999,0.71691729,-0.22552474,0.02943327
0.7600,5.38486376,0.71182855,-0.22402137,0.02985864
0.7650,5.40406919,0.70672614,-0.22250359,0.03029302
0.7700,5.42286400,0.70162200,-0.22097310,0.03073498
0.7750,5.44126575,0.69652778,-0.21943158,0.03118315
0.7800,5.45929182,0.69145479,-0.21788070,0.03163616
0.7850,5.47695933,0.68641396,-0.21632212,0.03209271
0.7900,5.49428517,0.68141584,-0.21475746,0.03255151
0.7950,5.51128598,0.67647059,-0.21318833,0.03301133
0.8000,5.52797806,0.67158790,-0.21161629,0.03347098
0.8050,5.54437743,0.66677703,-0.21004291,0.03392932
0.8100,5.56049977,0.66204674,-0.20846971,0.03438525
0.8150,5.57636040,0.65740532,-0.20689817,0.03483771
0.8200,5.59197431,0.65286052,-0.20532977,0.03528569
0.8250,5.60735609,0.64841957,-0.20376593,0.03572824
0.8300,5.62251999,0.64408916,-0.20220805,0.03616443
0.8350,5.63747983,0.63987540,-0.20065749,0.03659340
0.8400,5.65224908,0.63578388,-0.19911557,0.03701431
0.8450,5.66684079,0.63181956,-0.19758360,0.03742638
0.8500,5.68126762,0.62798685,-0.19606280,0.03782888
0.8550,5.69554183,0.62428958,-0.19455441,0.03822109
0.8600,5.70967527,0.62073099,-0.19305957,0.03860235
0.8650,5.72367938,0.61731373,-0.19157944,0.03897205
0.8700,5.73756523,0.61403990,-0.19011509,0.03932961
0.8750,5.75134347,0.61091103,-0.18866756,0.03967448
0.8800,5.76502434,0.60792807,-0.18723787,0.04000615
0.8850,5.77861772,0.60509148,-0.18582696,0.04032416
0.8900,5.79213306,0.60240115,-0.18443575,0.04062807
0.8950,5.80557946,0.59985650,-0.18306511,0.04091748
0.9000,5.81896560,0.59745646,-0.18171586,0.04119203
0.9050,5.83229983,0.59519948,-0.18038878,0.04145139
0.9100,5.84559008,0.59308363,-0.17908459,0.04169525
0.9150,5.85884395,0.59110651,-0.17780399,0.04192335
0.9200,5.87206864,0.58926538,-0.17654760,0.04213546
0.9250,5.88527103,0.58755715,-0.17531602,0.04233137
0.9300,5.89845762,0.58597840,-0.17410979,0.04251090
0.9350,5.91163459,0.58452540,-0.17292942,0.04267392
0.9400,5.92480775,0.58319419,-0.17177534,0.04282031
0.9450,5.93798259,0.58198056,-0.17064796,0.04294997
0.9500,5.95116427,0.58088007,-0.16954764,0.04306286
0.9550,5.96435761,0.57988815,-0.16847469,0.04315894
0.9600,5.97756713,0.57900003,-0.16742938,0.04323820
0.9650,5.99079699,0.57821084,-0.16641192,0.04330068
0.9700,6.00405109,0.57751558,-0.16542249,0.04334642
0.9750,6.01733299,0.57690919,-0.16446122,0.04337548
0.9800,6.03064593,0.57638654,-0.16352820,0.04338799
0.9850,6.04399288,0.57594244,-0.16262345,0.04338405
0.9900,6.05737649,0.57557170,-0.16174699,0.04336381
0.9950,6.07079912,0.57526908,-0.16089878,0.04332746
1.0000,6.08426284,0.57502937,-0.16007871,0.04327518
1.0050,6.09776942,0.57484737,-0.15928668,0.04320720
1.0100,6.11132037,0.57471790,-0.15852251,0.04312376
1.0150,6.12491687,0.57463580,-0.15778600,0.04302512
1.0200,6.13855986,0.57459596,-0.15707691,0.04291157
1.0250,6.15224999,0.57459334,-0.15639495,0.04278342
1.0300,6.16598764,0.57462292,-0.15573982,0.04264100
1.0350,6.17977289,0.57467976,-0.15511114,0.04248465
1.0400,6.19360558,0.57475897,-0.15450855,0.04231475
1.0450,6.20748529,0.57485574,-0.15393162,0.04213169
1.0500,6.22141131,0.57496533,-0.15337990,0.04193589
1.0550,6.23538269,0.57508308,-0.15285291,0.04172776
1.0600,6.24939822,0.57520439,-0.15235014,0.04150777
1.0650,6.26345644,0.57532476,-0.15187104,0.04127637
1.0700,6.27755566,0.57543977,-0.15141505,0.04103406
1.0750,6.29169391,0.57554509,-0.15098157,0.04078133
1.0800,6.30586903,0.57563649,-0.15056998,0.04051872
1.0850,6.32007859,0.57570982,-0.15017965,0.04024676
1.0900,6.33431997,0.57576105,-0.14980991,0.03996601
1.0950,6.34859032,0.57578626,-0.14946008,0.03967703
1.1000,6.36288656,0.57578163,-0.14912944,0.03938043
1.1050,6.37720543,0.57574349,-0.14881728,0.03907679
1.1100,6.39154347,0.57566827,-0.14852286,0.03876675
1.1150,6.40589703,0.57555255,-0.14824542,0.03845094
1.1200,6.42026228,0.57539307,-0.14798419,0.03812999
1.1250,6.43463522,0.57518670,-0.14773840,0.03780459
1.1300,6.44901169,0.57493049,-0.14750724,0.03747539
1.1350,6.46338737,0.57462167,-0.14728992,0.03714308
1.1400,6.47775782,0.57425763,-0.14708563,0.03680837
1.1450,6.49211846,0.57383600,-0.14689354,0.03647196
1.1500,6.50646457,0.57335457,-0.14671283,0.03613456
1.1550,6.52079136,0.57281137,-0.14654267,0.03579691
1.1600,6.53509392,0.57220467,-0.14638222,0.03545973
1.1650,6.54936726,0.57153295,-0.14623066,0.03512375
1.1700,6.56360631,0.57079496,-0.14608715,0.03478974
1.1750,6.57780594,0.56998970,-0.14595085,0.03445842
1.1800,6.59196099,0.56911644,-0.14582094,0.03413055
1.1850,6.60606623,0.56817474,-0.14569657,0.03380686
1.1900,6.62011644,0.56716443,-0.14557693,0.03348811
1.1950,6.63410636,0.56608564,-0.14546119,0.03317503
1.2000,6.64803074,0.56493878,-0.14534855,0.03286834
1.2050,6.66188435,0.56372460,-0.14523819,0.03256877
1.2100,6.67566196,0.56244413,-0.14512934,0.03227702
1.2150,6.68935840,0.56109871,-0.14502119,0.03199379
1.2200,6.70296853,0.55969001,-0.14491297,0.03171974
1.2250,6.71648728,0.55821999,-0.14480393,0.03145553
1.2300,6.72990964,0.55669091,-0.14469331,0.03120178
1.2350,6.74323068,0.55510537,-0.14458039,0.03095908
1.2400,6.75644556,0.55346622,-0.14446443,0.03072800
1.2450,6.76954955,0.55177664,-0.14434476,0.03050906
1.2500,6.78253801,0.55004007,-0.14422066,0.03030277
1.2550,6.79540645,0.54826020,-0.14409149,0.03010955
1.2600,6.80815047,0.54644102,-0.14395659,0.02992983
1.2650,6.82076583,0.54458670,-0.14381534,0.02976395
1.2700,6.83324842,0.54270168,-0.14366712,0.02961221
1.2750,6.84559430,0.54079059,-0.14351136,0.02947488
1.2800,6.85779967,0.53885821,-0.14334747,0.02935215
1.2850,6.86986091,0.53690951,-0.14317493,0.02924416
1.2900,6.88177454,0.53494960,-0.14299322,0.02915100
1.2950,6.89353728,0.53298366,-0.14280183,0.02907269
1.3000,6.90514604,0.53101699,-0.14260029,0.02900921
1.3050,6.91659789,0.52905492,-0.14238817,0.02896047
1.3100,6.92789010,0.52710281,-0.14216502,0.02892633
1.3150,6.93902013,0.52516602,-0.14193046,0.02890659
1.3200,6.94998563,0.52324985,-0.14168412,0.02890100
1.3250,6.96078444,0.52135956,-0.14142564,0.02890927
1.3300,6.97141462,0.51950030,-0.14115471,0.02893104
1.3350,6.98187441,0.51767709,-0.14087104,0.02896592
1.3400,6.99216225,0.51589479,-0.14057435,0.02901348
1.3450,7.00227678,0.51415806,-0.14026440,0.02907324
1.3500,7.01221685,0.51247135,-0.13994099,0.02914471
1.3550,7.02198148,0.51083886,-0.13960392,0.02922735
1.3600,7.03156991,0.50926452,-0.13925303,0.02932060
1.3650,7.04098158,0.50775194,-0.13888819,0.02942387
1.3700,7.05021609,0.50630444,-0.13850929,0.02953657
1.3750,7.05927326,0.50492496,-0.13811625,0.02965807
1.3800,7.06815308,0.50361609,-0.13770901,0.02978776
1.3850,7.07685574,0.50238006,-0.13728755,0.02992500
1.3900,7.08538158,0.50121867,-0.13685186,0.03006914
1.3950,7.09373116,0.50013335,-0.13640197,0.03021956
1.4000,7.10190517,0.49912509,-0.13593792,0.03037561
1.4050,7.10990449,0.49819449,-0.13545978,0.03053666
1.4100,7.11773018,0.49734171,-0.13496766,0.03070209
1.4150,7.12538343,0.49656651,-0.13446167,0.03087127
1.4200,7.13286561,0.49586822,-0.13394197,0.03104361
1.4250,7.14017825,0.49524580,-0.13340871,0.03121850
1.4300,7.14732301,0.49469778,-0.13286209,0.03139537
1.4350,7.15430172,0.49422233,-0.13230232,0.03157366
1.4400,7.16111632,0.49381726,-0.13172964,0.03175280
1.4450,7.16776894,0.49348004,-0.13114431,0.03193227
1.4500,7.17426181,0.49320779,-0.13054660,0.03211156
1.4550,7.18059731,0.49299738,-0.12993680,0.03229017
1.4600,7.18677795,0.49284536,-0.12931524,0.03246762
1.4650,7.19280636,0.49274805,-0.12868224,0.03264346
1.4700,7.19868531,0.49270155,-0.12803817,0.03281724
1.4750,7.20441770,0.49270177,-0.12738338,0.03298854
1.4800,7.21000654,0.49274444,-0.12671827,0.03315697
1.4850,7.21545496,0.49282518,-0.12604323,0.03332215
1.4900,7.22076620,0.49293946,-0.12535868,0.03348371
1.4950,7.22594364,0.49308272,-0.12466506,0.03364130
1.5000,7.23099075,0.49325030,-0.12396279,0.03379462
1.5050,7.23591111,0.49343753,-0.12325235,0.03394336
1.5100,7.24070842,0.49363975,-0.12253419,0.03408722
1.5150,7.24538648,0.49385230,-0.12180879,0.03422594
1.5200,7.24994918,0.49407057,-0.12107665,0.03435928
1.5250,7.25440051,0.49429000,-0.12033825,0.03448700
1.5300,7.25874455,0.49450612,-0.11959411,0.03460889
1.5350,7.26298548,0.49471455,-0.11884473,0.03472475
1.5400,7.26712756,0.49491102,-0.11809064,0.03483440
1.5450,7.27117510,0.49509139,-0.11733236,0.03493768
1.5500,7.27513251,0.49525162,-0.11657042,0.03503445
1.5550,7.27900427,0.49538785,-0.11580536,0.03512456
1.5600,7.28279490,0.49549634,-0.11503770,0.03520791
1.5650,7.28650898,0.49557350,-0.11426799,0.03528440
1.5700,7.29015114,0.49561592,-0.11349677,0.03535393
1.5750,7.29372604,0.49562032,-0.11272459,0.03541645
1.5800,7.29723838,0.49558357,-0.11195197,0.03547188
1.5850,7.30069287,0.49550274,-0.11117947,0.03552020
1.5900,7.30409425,0.49537500,-0.11040761,0.03556137
1.5950,7.30744724,0.49519772,-0.10963694,0.03559537
1.6000,7.31075660,0.49496839,-0.10886799,0.03562220
1.6050,7.31402704,0.49468465,-0.10810129,0.03564188
1.6100,7.31726327,0.49434430,-0.10733735,0.03565442
1.6150,7.32046997,0.49394526,-0.10657670,0.03565986
1.6200,7.32365178,0.49348559,-0.10581984,0.03565825
1.6250,7.32681329,0.49296351,-0.10506729,0.03564965
1.6300,7.32995906,0.49237732,-0.10431953,0.03563413
1.6350,7.33309358,0.49172548,-0.10357706,0.03561177
1.6400,7.33622127,0.49100657,-0.10284034,0.03558265
1.6450,7.33934647,0.49021928,-0.10210986,0.03554690
1.6500,7.34247345,0.48936244,-0.10138607,0.03550461
1.6550,7.34560640,0.48843497,-0.10066942,0.03545591
1.6600,7.34874941,0.48743594,-0.09996034,0.03540094
1.6650,7.35190647,0.48636451,-0.09925926,0.03533984
1.6700,7.35508147,0.48521998,-0.09856658,0.03527277
1.6750,7.35827819,0.48400176,-0.09788271,0.03519988
1.6800,7.36150031,0.48270938,-0.09720804,0.03512134
1.6850,7.36475138,0.48134249,-0.09654292,0.03503734
1.6900,7.36803483,0.47990087,-0.09588773,0.03494806
1.6950,7.37135400,0.47838442,-0.09524279,0.03485370
1.7000,7.37471206,0.47679318,-0.09460844,0.03475447
1.7050,7.37811208,0.47512730,-0.09398499,0.03465056
1.7100,7.38155701,0.47338706,-0.09337273,0.03454220
1.7150,7.38504964,0.47157290,-0.09277194,0.03442962
1.7200,7.38859265,0.46968535,-0.09218289,0.03431304
1.7250,7.39218858,0.46772511,-0.09160581,0.03419270
1.7300,7.39583985,0.46569299,-0.09104095,0.03406884
1.7350,7.39954872,0.46358995,-0.09048851,0.03394171
1.7400,7.40331734,0.46141705,-0.08994869,0.03381157
1.7450,7.40714771,0.45917553,-0.08942166,0.03367866
1.7500,7.41104170,0.45686671,-0.08890759,0.03354326
1.7550,7.41500105,0.45449206,-0.08840662,0.03340562
1.7600,7.41902736,0.45205317,-0.08791888,0.03326601
1.7650,7.42312208,0.44955173,-0.08744447,0.03312471
1.7700,7.42728656,0.44698956,-0.08698349,0.03298198
1.7750,7.43152199,0.44436858,-0.08653600,0.03283810
1.7800,7.43582944,0.44169081,-0.08610207,0.03269334
1.7850,7.44020984,0.43895835,-0.08568174,0.03254799
1.7900,7.44466399,0.43617341,-0.08527502,0.03240231
1.7950,7.44919256,0.43333826,-0.08488193,0.03225659
1.8000,7.45379609,0.43045523,-0.08450244,0.03211109
1.8050,7.45847500,0.42752674,-0.08413654,0.03196610
1.8100,7.46322957,0.42455525,-0.08378417,0.03182188
1.8150,7.46805996,0.42154324,-0.08344528,0.03167871
1.8200,7.47296620,0.41849327,-0.08311978,0.03153684
1.8250,7.47794820,0.41540787,-0.08280760,0.03139654
1.8300,7.48300574,0.41228964,-0.08250860,0.03125807
1.8350,7.48813850,0.40914115,-0.08222269,0.03112168
1.8400,7.49334601,0.40596498,-0.08194971,0.03098762
1.8450,7.49862770,0.40276370,-0.08168951,0.03085612
1.8500,7.50398289,0.39953988,-0.08144193,0.03072742
1.8550,7.50941076,0.39629603,-0.08120678,0.03060174
1.8600,7.51491040,0.39303466,-0.08098388,0.03047931
1.8650,7.52048078,0.38975821,-0.08077302,0.03036033
1.8700,7.52612076,0.38646912,-0.08057398,0.03024500
1.8750,7.53182909,0.38316973,-0.08038653,0.03013351
